# source: https://jwst-docs.stsci.edu/jwst-near-infrared-camera/nircam-instrumentation/nircam-filters 
# Wavelength(nm) Transmission(0-1)
2347.8883979999996 0.0
2349.0893639999995 0.0
2350.29033 4.6474990540989836e-06
2351.491296 4.99651695615195e-06
2352.692262 4.024771151434401e-06
2353.893228 3.363599014754457e-06
2355.094194 3.308632049095061e-06
2356.29516 3.4398316752441584e-06
2357.496126 3.5468076907888374e-06
2358.697092 3.834835390756632e-06
2359.898058 3.745807369320903e-06
2361.099024 3.43341815270323e-06
2362.299989 3.6171858808918587e-06
2363.500955 4.599042371951764e-06
2364.701921 5.2685889654334635e-06
2365.902887 6.680150892266612e-06
2367.103853 7.372790423773406e-06
2368.304819 9.183269314910523e-06
2369.505785 1.1651986409749532e-05
2370.706751 2.2174288795552896e-05
2371.907717 3.35201334579824e-05
2373.108683 4.7792347725650404e-05
2374.309649 7.219265219165976e-05
2375.510615 9.95736126946417e-05
2376.711581 0.00013605420975984755
2377.912547 0.00017502455405048883
2379.113513 0.0002284538501319917
2380.314478 0.0002966932945981869
2381.515444 0.00038032288009981854
2382.71641 0.0004843719568610194
2383.917376 0.0006145660101957642
2385.118342 0.0007793892643608773
2386.319308 0.0009816182573639254
2387.520274 0.0012423499727584563
2388.72124 0.0015698565838819607
2389.922206 0.0019876641638127
2391.123172 0.0025224962242908723
2392.324138 0.0032067449791880944
2393.525104 0.0040990124256250465
2394.72607 0.005257576317622132
2395.927036 0.006777508140882998
2397.128002 0.008795379033836287
2398.328967 0.011470141529391005
2399.529933 0.015037547887707055
2400.730899 0.019786036065638633
2401.931865 0.026095235569492344
2403.132831 0.03445403659238891
2404.333797 0.04535832187976943
2405.534763 0.059390131811005345
2406.735729 0.07706050590296964
2407.936695 0.09874039279908073
2409.137661 0.12457595666213139
2410.338627 0.15397930434200446
2411.539593 0.1859563512381479
2412.740559 0.218896930300538
2413.941525 0.2507890225592827
2415.142491 0.27975513840384497
2416.343456 0.3039625204444696
2417.544422 0.3228693976565412
2418.745388 0.33658392292811845
2419.946354 0.3458937122998994
2421.14732 0.35217233192423036
2422.348286 0.3560314166410316
2423.549252 0.3584899001763059
2424.750218 0.36019322489753536
2425.951184 0.3615627282147935
2427.15215 0.36302907925659844
2428.353116 0.3643278601864334
2429.554082 0.36573129456613873
2430.755048 0.3672147669880322
2431.956014 0.36874552368265395
2433.15698 0.3704740203610703
2434.357945 0.37195682625027926
2435.558911 0.3733585241591574
2436.759877 0.37465277164606436
2437.960843 0.37586604128290524
2439.161809 0.37710942302980155
2440.362775 0.37798078906740906
2441.563741 0.37866578416980884
2442.764707 0.3792172563127775
2443.965673 0.3796227756348659
2445.166639 0.3800960383578834
2446.367605 0.3802618478306275
2447.568571 0.3803433749654794
2448.769537 0.380345623453584
2449.970503 0.3802809460708052
2451.171469 0.37959250575039416
2452.372434 0.3790771752323936
2453.5734 0.3785300240170772
2454.774366 0.37797210365442147
2455.975332 0.3775608355763747
2457.176298 0.37694392322315634
2458.377264 0.37654348222640455
2459.57823 0.376161569702512
2460.779196 0.37580295455923723
2461.980162 0.37546907986026457
2463.181128 0.3749734367007481
2464.382094 0.37472976891965715
2465.58306 0.3745254566501525
2466.784026 0.3743597687709362
2467.984992 0.3742586198428832
2469.185958 0.37421568605499445
2470.386923 0.3742202379363653
2471.587889 0.3744831599945292
2472.788855 0.37460733322705336
2473.989821 0.37503132058525607
2475.190787 0.3753788683123477
2476.391753 0.37580128695108367
2477.592719 0.3764530405283409
2478.793685 0.37691470917022035
2479.994651 0.3776058897025224
2481.195617 0.3781193164724781
2482.396583 0.3788199967852407
2483.597549 0.37950508041288433
2484.798515 0.3801874736410418
2485.999481 0.3806099207535576
2487.200446 0.38117617780956614
2488.401412 0.3817079511660023
2489.602378 0.38197934354590307
2490.803344 0.3823475410381447
2492.00431 0.38263343136122463
2493.205276 0.3829270056664655
2494.406242 0.3831921284109612
2495.607208 0.38335341031655823
2496.808174 0.3834600106448707
2498.00914 0.38345056252634296
2499.210106 0.3833460532246842
2500.411072 0.38320119584861445
2501.612038 0.38299944717247913
2502.813004 0.3827150535278675
2504.01397 0.38241625649950806
2505.214935 0.382073688747179
2506.415901 0.38169573463993905
2507.616867 0.38131963425273446
2508.817833 0.3809588098504747
2510.018799 0.38059560872165443
2511.219765 0.38023841091630456
2512.420731 0.37998560366629275
2513.621697 0.37983117583821036
2514.822663 0.3797139126750852
2516.023629 0.3796691824746643
2517.224595 0.3796477815378373
2518.425561 0.3796593632892435
2519.626527 0.3797289028690388
2520.827493 0.3798474110952188
2522.028459 0.3799767613342688
2523.229424 0.3801501326987473
2524.43039 0.3803514527959028
2525.631356 0.38056116175972854
2526.832322 0.38080203388651324
2528.033288 0.3810671469753445
2529.234254 0.38130041670513193
2530.43522 0.3815449426339297
2531.636186 0.3818097946033276
2532.837152 0.3821503001452209
2534.038118 0.38249362677932064
2535.239084 0.38281896180112485
2536.44005 0.3830890718628266
2537.641016 0.38334273387722717
2538.841982 0.3835779264413538
2540.042948 0.38376931176385265
2541.243913 0.38393440029842096
2542.444879 0.38406977893666083
2543.645845 0.3841547898744698
2544.846811 0.38420395280642305
2546.047777 0.38423990028071253
2547.248743 0.3842007962839177
2548.449709 0.3841316905438269
2549.650675 0.3840338897984591
2550.851641 0.3838299457210982
2552.052607 0.3837089270033527
2553.253573 0.3835668185203832
2554.454539 0.38330116404521103
2555.655505 0.3829504851666884
2556.856471 0.38251330415901286
2558.057437 0.381995136693135
2559.258402 0.3813342419938369
2560.459368 0.38057965764383667
2561.660334 0.3797113969416084
2562.8613 0.37878613778068254
2564.062266 0.3778876908585645
2565.263232 0.3768741125208621
2566.464198 0.3759045306641159
2567.665164 0.3750141571467773
2568.86613 0.37418729952154484
2570.067096 0.3736252602704047
2571.268062 0.37323791443814913
2572.469028 0.37310668901997845
2573.669994 0.37336638222877105
2574.87096 0.3739077300367054
2576.071926 0.374673354275171
2577.272891 0.3755806941861709
2578.473857 0.3763734912393516
2579.674823 0.376728702548627
2580.875789 0.3763298445867753
2582.076755 0.3746440391887347
2583.277721 0.3710853659150831
2584.478687 0.36516807806314133
2585.679653 0.3561684258472734
2586.880619 0.34385743629881343
2588.081585 0.3280916294793913
2589.282551 0.3086573650116151
2590.483517 0.28598175080564336
2591.684483 0.2606288854802842
2592.885449 0.2332238344137984
2594.086414 0.20497983318211968
2595.28738 0.17633247737970242
2596.488346 0.14911637376716824
2597.689312 0.12426377719525969
2598.890278 0.10208985952787583
2600.091244 0.08294383570172367
2601.29221 0.06676623124630698
2602.493176 0.053413519173568624
2603.694142 0.04265238733075076
2604.895108 0.03407687841821944
2606.096074 0.02714440545877784
2607.29704 0.02175800562812505
2608.498006 0.017498380091008698
2609.698972 0.01411390690013083
2610.899938 0.011441387535228286
2612.100903 0.009304733447793038
2613.301869 0.007602617122514671
2614.502835 0.006241081200036234
2615.703801 0.005146966496740927
2616.904767 0.0042706817150870175
2618.105733 0.0035581659114657946
2619.306699 0.00297359560544701
2620.507665 0.002504020724609398
2621.708631 0.002112626797837837
2622.909597 0.0017882061690241975
2624.110563 0.0015297917145347794
2625.311529 0.0013103537630757035
2626.512495 0.0011286077112559805
2627.713461 0.0009777967505813457
2628.914427 0.0008445723983175576
2630.115392 0.000738782437844887
2631.316358 0.0006475443755609069
2632.517324 0.0005668293014048769
2633.71829 0.0005085130200814263
2634.919256 0.00044802256266233585
2636.120222 0.00039709512873926017
2637.321188 0.0003573793994674046
2638.522154 0.0003200369790423539
2639.72312 0.00029495905566926793
2640.924086 0.0002676310498776666
2642.125052 0.00024076408354211667
2643.326018 0.00022549554599690755
2644.526984 0.00020559490169182507
2645.72795 0.00018798495671712656
2646.928916 0.00017449994359680112
2648.129881 0.0001584782434958496
2649.330847 0.0001496801222287691
2650.531813 0.00013541780508687041
2651.732779 0.00012656572051013664
2652.933745 0.00012284834912626322
2654.134711 0.00010932426433843108
2655.335677 0.00010334339993086095
2656.536643 9.840285762465806e-05
2657.737609 8.869847938827469e-05
2658.938575 8.503725689562685e-05
2660.139541 7.665863680636142e-05
2661.340507 7.081097328781359e-05
2662.541473 6.590007952331484e-05
2663.742439 6.100797973207474e-05
2664.943405 6.179471890461082e-05
2666.14437 5.4047168663337135e-05
2667.345336 5.1433489994976716e-05
2668.546302 5.218357609169885e-05
2669.747268 4.826908625209318e-05
2670.948234 4.842818776052929e-05
2672.1492 4.4402148424640186e-05
2673.350166 4.430301606894435e-05
2674.551132 4.87037028790429e-05
2675.752098 4.4283682395547976e-05
2676.953064 4.5570548113573774e-05
2678.15403 4.2924972164035354e-05
2679.354996 3.946340424945627e-05
2680.555962 3.970554737605887e-05
2681.756928 3.878285338844824e-05
2682.957894 4.198104302866883e-05
2684.158859 4.11629627828893e-05
2685.359825 3.9544458858759284e-05
2686.560791 4.06899614419472e-05
2687.761757 3.9871465334309515e-05
2688.962723 4.120486959904941e-05
2690.163689 4.177666459396507e-05
2691.364655 4.0286019367584204e-05
2692.565621 4.1533082657167254e-05
2693.766587 3.971094786713316e-05
2694.967553 4.0586308672606166e-05
2696.168519 4.142419383339695e-05
2697.369485 3.930798034086702e-05
2698.570451 4.207074730907059e-05
2699.771417 4.215217352910173e-05
2700.972383 4.0256860495170936e-05
2702.173348 3.795995480854146e-05
2703.374314 3.735850090176086e-05
2704.57528 3.777763123845181e-05
2705.776246 3.487551588042542e-05
2706.977212 3.766635849757917e-05
2708.178178 3.73441380671684e-05
2709.379144 3.875709914487303e-05
2710.58011 3.912346369343853e-05
2711.781076 3.700981349315487e-05
2712.982042 3.732832005727672e-05
2714.183008 3.615472012173051e-05
2715.383974 3.7004196087819444e-05
2716.58494 3.723853635119153e-05
2717.785906 3.513529986492235e-05
2718.986871 3.670411535124826e-05
2720.187837 3.7098826708840487e-05
2721.388803 3.747865235191022e-05
2722.589769 3.262644116030361e-05
2723.790735 3.446929775235176e-05
2724.991701 3.574297445696033e-05
2726.192667 3.396423687037911e-05
2727.393633 3.551992045305812e-05
2728.594599 3.445150786845058e-05
2729.795565 3.463493190369625e-05
2730.996531 3.2936606408659016e-05
2732.197497 3.026026533578742e-05
2733.398463 3.0712578681369865e-05
2734.599429 2.8045330378565895e-05
2735.800395 2.9107250240505046e-05
2737.00136 2.8478497459086152e-05
2738.202326 2.7151094674058857e-05
2739.403292 2.8374699034137534e-05
2740.604258 2.670869939689421e-05
2741.805224 2.7183777349484658e-05
2743.00619 2.636804516237891e-05
2744.207156 2.5743256623250018e-05
2745.408122 2.3903711085147814e-05
2746.609088 2.3519341769494175e-05
2747.810054 2.5671954397782727e-05
2749.01102 2.4418608899519366e-05
2750.211986 2.35035206679066e-05
2751.412952 0.0
2752.613918 0.0
